FREQ-GHZ  MAG[Z1]   IM[Z1]
            OPEN2    OPEN2
 
 2.00000   75.254   75.191
 2.00500   76.311   76.245
 2.01000   77.387   77.319
 2.01500   78.486   78.415
 2.02000   79.607   79.534
 2.02500   80.751   80.675
 2.03000   81.919   81.840
 2.03500   83.111   83.030
 2.04000   84.330   84.245
 2.04500   85.575   85.487
 2.05000   86.847   86.756
 2.05500   88.148   88.054
 2.06000   89.479   89.381
 2.06500   90.841   90.739
 2.07000   92.235   92.128
 2.07500   93.662   93.551
 2.08000   95.124   95.008
 2.08500   96.622   96.501
 2.09000   98.158   98.031
 2.09500   99.732   99.600
 2.10000  101.348  101.209
 2.10500  103.005  102.861
 2.11000  104.707  104.556
 2.11500  106.456  106.297
 2.12000  108.252  108.086
 2.12500  110.099  109.925
 2.13000  111.999  111.816
 2.13500  113.954  113.762
 2.14000  115.967  115.764
 2.14500  118.041  117.827
 2.15000  120.178  119.953
 2.15500  122.382  122.145
 2.16000  124.656  124.405
 2.16500  127.003  126.739
 2.17000  129.428  129.148
 2.17500  131.935  131.638
 2.18000  134.527  134.213
 2.18500  137.210  136.877
 2.19000  139.989  139.635
 2.19500  142.869  142.493
 2.20000  145.856  145.456
 2.20500  148.956  148.529
 2.21000  152.176  151.721
 2.21500  155.524  155.037
 2.22000  159.007  158.487
 2.22500  162.634  162.077
 2.23000  166.415  165.816
 2.23500  170.359  169.716
 2.24000  174.478  173.786
 2.24500  178.784  178.038
 2.25000  183.291  182.485
 2.25500  188.012  187.140
 2.26000  192.964  192.019
 2.26500  198.165  197.139
 2.27000  203.634  202.518
 2.27500  209.393  208.175
 2.28000  215.466  214.135
 2.28500  221.879  220.420
 2.29000  228.662  227.060
 2.29500  235.849  234.084
 2.30000  243.477  241.527
 2.30500  251.587  249.427
 2.31000  260.227  257.827
 2.31500  269.452  266.775
 2.32000  279.322  276.326
 2.32500  289.907  286.541
 2.33000  301.288  297.491
 2.33500  313.557  309.254
 2.34000  326.822  321.922
 2.34500  341.207  335.599
 2.35000  356.858  350.403
 2.35500  373.948  366.473
 2.36000  392.679  383.967
 2.36500  413.293  403.065
 2.37000  436.082  423.979
 2.37500  461.395  446.949
 2.38000  489.658  472.249
 2.38500  521.392  500.188
 2.39000  557.237  531.105
 2.39500  597.990  565.356
 2.40000  644.636  603.280
 2.40500  698.407  645.125
 2.41000  760.830  690.902
 2.41500  833.772  740.090
 2.42000  919.441  791.055
 2.42500  1.0e+03  839.951
 2.43000  1.1e+03  878.715
 2.43500  1.3e+03  891.816
 2.44000  1.4e+03  852.415
 2.44500  1.6e+03  722.609
 2.45000  1.7e+03  470.022
 2.45500  1.8e+03  108.291
 2.46000  1.7e+03 -277.953
 2.46500  1.6e+03 -585.496
 2.47000  1.5e+03 -769.651
 2.47500  1.3e+03 -848.053
 2.48000  1.2e+03 -858.769
 2.48500  1.1e+03 -833.364
 2.49000  956.516 -791.576
 2.49500  865.260 -744.202
 2.50000  787.656 -696.680
 2.50500  721.392 -651.532
 2.51000  664.462 -609.765
 2.51500  615.212 -571.638
 2.52000  572.301 -537.049
 2.52500  534.655 -505.738
 2.53000  501.409 -477.393
 2.53500  471.867 -451.700
 2.54000  445.464 -428.359
 2.54500  421.741 -407.101
 2.55000  400.320 -387.687
 2.55500  380.890 -369.907
 2.56000  363.189 -353.575
 2.56500  347.002 -338.534
 2.57000  332.144 -324.642
 2.57500  318.460 -311.779
 2.58000  305.818 -299.839
 2.58500  294.104 -288.728
 2.59000  283.220 -278.366
 2.59500  273.082 -268.681
 2.60000  263.614 -259.610
 2.60500  254.754 -251.098
 2.61000  246.444 -243.095
 2.61500  238.634 -235.558
 2.62000  231.281 -228.447
 2.62500  224.345 -221.726
 2.63000  217.792 -215.366
 2.63500  211.590 -209.338
 2.64000  205.713 -203.617
 2.64500  200.133 -198.179
 2.65000  194.831 -193.004
 2.65500  189.784 -188.073
 2.66000  184.975 -183.370
 2.66500  180.387 -178.878
 2.67000  176.005 -174.584
 2.67500  171.814 -170.475
 2.68000  167.804 -166.538
 2.68500  163.961 -162.764
 2.69000  160.275 -159.141
 2.69500  156.737 -155.661
 2.70000  153.338 -152.316
 2.70500  150.069 -149.097
 2.71000  146.923 -145.997
 2.71500  143.892 -143.010
 2.72000  140.972 -140.130
 2.72500  138.154 -137.349
 2.73000  135.434 -134.665
 2.73500  132.807 -132.070
 2.74000  130.268 -129.561
 2.74500  127.811 -127.134
 2.75000  125.434 -124.783
 2.75500  123.132 -122.506
 2.76000  120.901 -120.299
 2.76500  118.738 -118.159
 2.77000  116.640 -116.082
 2.77500  114.604 -114.066
 2.78000  112.627 -112.107
 2.78500  110.705 -110.203
 2.79000  108.838 -108.353
 2.79500  107.022 -106.553
 2.80000  105.255 -104.801
 2.80500  103.535 -103.095
 2.81000  101.860 -101.434
 2.81500  100.228  -99.815
 2.82000   98.638  -98.237
 2.82500   97.087  -96.698
 2.83000   95.575  -95.196
 2.83500   94.099  -93.731
 2.84000   92.658  -92.300
 2.84500   91.251  -90.903
 2.85000   89.877  -89.538
 2.85500   88.534  -88.203
 2.86000   87.221  -86.899
 2.86500   85.937  -85.623
 2.87000   84.682  -84.375
 2.87500   83.453  -83.153
 2.88000   82.250  -81.958
 2.88500   81.073  -80.787
 2.89000   79.919  -79.640
 2.89500   78.789  -78.516
 2.90000   77.682  -77.414
 2.90500   76.596  -76.335
 2.91000   75.532  -75.276
 2.91500   74.488  -74.237
 2.92000   73.464  -73.218
 2.92500   72.459  -72.218
 2.93000   71.473  -71.236
 2.93500   70.504  -70.272
 2.94000   69.553  -69.325
 2.94500   68.619  -68.395
 2.95000   67.701  -67.481
 2.95500   66.799  -66.582
 2.96000   65.912  -65.699
 2.96500   65.040  -64.831
 2.97000   64.183  -63.977
 2.97500   63.339  -63.137
 2.98000   62.510  -62.310
 2.98500   61.693  -61.496
 2.99000   60.889  -60.696
 2.99500   60.098  -59.907
 3.00000   59.319  -59.131

