FREQ-MHZ	DB[S11]	MAG[Z1]
	EXP1	EXP1
		
5.00E-07	-10.495	27
10	-10.491	26.991
20	-10.487	26.982
30	-10.482	26.974
40	-10.478	26.965
50	-10.474	26.956
60	-10.469	26.947
70	-10.465	26.939
80	-10.461	26.93
90	-10.457	26.922
100	-10.453	26.913
110	-10.449	26.905
120	-10.445	26.896
130	-10.441	26.888
140	-10.437	26.88
150	-10.433	26.872
160	-10.429	26.864
170	-10.425	26.857
180	-10.421	26.849
190	-10.418	26.842
200	-10.414	26.835
210	-10.411	26.828
220	-10.408	26.821
230	-10.404	26.814
240	-10.401	26.808
250	-10.398	26.802
260	-10.395	26.796
270	-10.392	26.79
280	-10.39	26.784
290	-10.387	26.779
300	-10.385	26.774
310	-10.382	26.769
320	-10.38	26.765
330	-10.378	26.76
340	-10.376	26.756
350	-10.374	26.752
360	-10.372	26.749
370	-10.371	26.746
380	-10.369	26.743
390	-10.368	26.74
400	-10.366	26.738
410	-10.365	26.735
420	-10.364	26.734
430	-10.364	26.732
440	-10.363	26.731
450	-10.363	26.73
460	-10.362	26.729
470	-10.362	26.729
480	-10.362	26.729
490	-10.362	26.729
500	-10.362	26.73
510	-10.362	26.73
520	-10.363	26.732
530	-10.363	26.733
540	-10.364	26.735
550	-10.365	26.737
560	-10.366	26.739
570	-10.367	26.742
580	-10.369	26.744
590	-10.37	26.747
600	-10.372	26.751
610	-10.373	26.755
620	-10.375	26.758
630	-10.377	26.763
640	-10.379	26.767
650	-10.381	26.772
660	-10.384	26.777
670	-10.386	26.782
680	-10.388	26.787
690	-10.391	26.793
700	-10.394	26.799
710	-10.397	26.805
720	-10.4	26.811
730	-10.403	26.817
740	-10.406	26.824
750	-10.409	26.831
760	-10.412	26.838
770	-10.416	26.845
780	-10.419	26.852
790	-10.423	26.86
800	-10.427	26.867
810	-10.43	26.875
820	-10.434	26.883
830	-10.438	26.891
840	-10.442	26.899
850	-10.446	26.907
860	-10.45	26.915
870	-10.454	26.923
880	-10.458	26.932
890	-10.462	26.94
900	-10.466	26.948
910	-10.47	26.957
920	-10.474	26.965
930	-10.478	26.974
940	-10.482	26.982
950	-10.487	26.991
960	-10.491	26.999
970	-10.495	27.008
980	-10.499	27.016
990	-10.503	27.024
1000	-10.507	27.033
1010	-10.511	27.041
1020	-10.515	27.049
1030	-10.519	27.057
1040	-10.523	27.065
1050	-10.527	27.073
1060	-10.531	27.08
1070	-10.535	27.088
1080	-10.539	27.095
1090	-10.542	27.103
1100	-10.546	27.11
1110	-10.549	27.117
1120	-10.553	27.124
1130	-10.556	27.13
1140	-10.559	27.137
1150	-10.562	27.143
1160	-10.565	27.149
1170	-10.568	27.155
1180	-10.571	27.16
1190	-10.574	27.166
1200	-10.577	27.171
1210	-10.579	27.176
1220	-10.581	27.18
1230	-10.584	27.185
1240	-10.586	27.189
1250	-10.588	27.193
1260	-10.59	27.196
1270	-10.591	27.2
1280	-10.593	27.203
1290	-10.594	27.205
1300	-10.596	27.208
1310	-10.597	27.21
1320	-10.598	27.212
1330	-10.599	27.214
1340	-10.6	27.215
1350	-10.6	27.216
1360	-10.601	27.217
1370	-10.601	27.217
1380	-10.601	27.217
1390	-10.601	27.217
1400	-10.601	27.217
1410	-10.601	27.216
1420	-10.6	27.215
1430	-10.6	27.214
1440	-10.599	27.212
1450	-10.598	27.21
1460	-10.597	27.208
1470	-10.596	27.205
1480	-10.594	27.203
1490	-10.593	27.199
1500	-10.591	27.196
1510	-10.59	27.193
1520	-10.588	27.189
1530	-10.586	27.185
1540	-10.584	27.18
1550	-10.581	27.176
1560	-10.579	27.171
1570	-10.576	27.166
1580	-10.574	27.16
1590	-10.571	27.155
1600	-10.568	27.149
1610	-10.565	27.143
1620	-10.562	27.137
1630	-10.559	27.13
1640	-10.556	27.124
1650	-10.553	27.117
1660	-10.549	27.11
1670	-10.546	27.103
1680	-10.542	27.096
1690	-10.539	27.088
1700	-10.535	27.081
1710	-10.531	27.073
1720	-10.527	27.065
1730	-10.523	27.057
1740	-10.519	27.049
1750	-10.515	27.041
1760	-10.511	27.033
1770	-10.507	27.025
1780	-10.503	27.017
1790	-10.499	27.008
1800	-10.495	27
1810	-10.491	26.992
1820	-10.487	26.983
1830	-10.483	26.975
1840	-10.479	26.966
1850	-10.475	26.958
1860	-10.471	26.95
1870	-10.466	26.941
1880	-10.462	26.933
1890	-10.458	26.925
1900	-10.454	26.917
1910	-10.45	26.909
1920	-10.447	26.901
1930	-10.443	26.893
1940	-10.439	26.885
1950	-10.435	26.877
1960	-10.431	26.87
1970	-10.428	26.862
1980	-10.424	26.855
1990	-10.421	26.848
2000	-10.417	26.841
2010	-10.414	26.834
2020	-10.411	26.828
2030	-10.408	26.821
2040	-10.405	26.815
2050	-10.402	26.809
2060	-10.399	26.803
2070	-10.396	26.798
2080	-10.394	26.792
2090	-10.391	26.787
2100	-10.389	26.782
2110	-10.386	26.778
2120	-10.384	26.773
2130	-10.382	26.769
2140	-10.38	26.765
2150	-10.378	26.761
2160	-10.377	26.758
2170	-10.375	26.755
2180	-10.374	26.752
2190	-10.372	26.75
2200	-10.371	26.747
2210	-10.37	26.745
2220	-10.369	26.744
2230	-10.369	26.742
2240	-10.368	26.741
2250	-10.368	26.74
2260	-10.367	26.74
2270	-10.367	26.74
2280	-10.367	26.74
2290	-10.367	26.74
2300	-10.367	26.741
2310	-10.368	26.742
2320	-10.368	26.743
2330	-10.369	26.744
2340	-10.37	26.746
2350	-10.371	26.748
2360	-10.372	26.751
2370	-10.373	26.753
2380	-10.374	26.756
2390	-10.376	26.76
2400	-10.377	26.763
2410	-10.379	26.767
2420	-10.381	26.771
2430	-10.383	26.775
2440	-10.385	26.78
2450	-10.387	26.784
2460	-10.39	26.789
2470	-10.392	26.795
2480	-10.395	26.8
2490	-10.398	26.806
2500	-10.4	26.812
2510	-10.403	26.818
2520	-10.406	26.824
2530	-10.409	26.831
2540	-10.413	26.837
2550	-10.416	26.844
2560	-10.419	26.851
2570	-10.423	26.859
2580	-10.426	26.866
2590	-10.43	26.873
2600	-10.433	26.881
2610	-10.437	26.889
2620	-10.441	26.897
2630	-10.445	26.905
2640	-10.449	26.913
2650	-10.453	26.921
2660	-10.457	26.929
2670	-10.461	26.937
2680	-10.465	26.945
2690	-10.469	26.954
2700	-10.473	26.962
2710	-10.477	26.971
2720	-10.481	26.979
2730	-10.485	26.987
2740	-10.489	26.996
2750	-10.493	27.004
2760	-10.498	27.013
2770	-10.502	27.021
2780	-10.506	27.029
2790	-10.51	27.037
2800	-10.514	27.045
2810	-10.518	27.053
2820	-10.522	27.061
2830	-10.526	27.069
2840	-10.529	27.077
2850	-10.533	27.085
2860	-10.537	27.092
2870	-10.541	27.099
2880	-10.544	27.106
2890	-10.548	27.113
2900	-10.551	27.12
2910	-10.554	27.127
2920	-10.558	27.133
2930	-10.561	27.14
2940	-10.564	27.146
2950	-10.567	27.152
2960	-10.57	27.157
2970	-10.573	27.163
2980	-10.575	27.168
2990	-10.578	27.173
3000	-10.58	27.177
3010	-10.582	27.182
3020	-10.585	27.186
3030	-10.587	27.19
3040	-10.588	27.194
3050	-10.59	27.197
3060	-10.592	27.2
3070	-10.593	27.203
3080	-10.595	27.205
3090	-10.596	27.208
3100	-10.597	27.21
3110	-10.598	27.211
3120	-10.599	27.213
3130	-10.599	27.214
3140	-10.6	27.215
3150	-10.6	27.215
3160	-10.6	27.215
3170	-10.6	27.215
3180	-10.6	27.215
3190	-10.6	27.214
3200	-10.599	27.213
3210	-10.599	27.212
3220	-10.598	27.21
3230	-10.597	27.208
3240	-10.596	27.206
3250	-10.595	27.204
3260	-10.594	27.201
3270	-10.592	27.198
3280	-10.591	27.195
3290	-10.589	27.191
3300	-10.587	27.187
3310	-10.585	27.183
3320	-10.583	27.179
3330	-10.581	27.174
3340	-10.578	27.169
3350	-10.576	27.164
3360	-10.573	27.159
3370	-10.571	27.154
3380	-10.568	27.148
3390	-10.565	27.142
3400	-10.562	27.136
3410	-10.559	27.13
3420	-10.556	27.123
3430	-10.553	27.117
3440	-10.549	27.11
3450	-10.546	27.103
3460	-10.542	27.096
3470	-10.539	27.089
3480	-10.535	27.081
3490	-10.532	27.074
3500	-10.528	27.067
3510	-10.524	27.059
3520	-10.52	27.051
3530	-10.517	27.043
3540	-10.513	27.036
3550	-10.509	27.028
3560	-10.505	27.02
3570	-10.501	27.012
3580	-10.497	27.004
3590	-10.493	26.996
3600	-10.489	26.988
3610	-10.485	26.98
3620	-10.482	26.972
3630	-10.478	26.964
3640	-10.474	26.956
3650	-10.47	26.949
3660	-10.466	26.941
3670	-10.462	26.933
3680	-10.459	26.926
3690	-10.455	26.918
3700	-10.452	26.911
3710	-10.448	26.904
3720	-10.445	26.897
3730	-10.441	26.89
3740	-10.438	26.883
3750	-10.435	26.876
3760	-10.431	26.87
3770	-10.428	26.863
3780	-10.425	26.857
3790	-10.422	26.851
3800	-10.42	26.846
3810	-10.417	26.84
3820	-10.414	26.835
3830	-10.412	26.83
3840	-10.409	26.825
3850	-10.407	26.82
3860	-10.405	26.816
3870	-10.403	26.812
3880	-10.401	26.808
3890	-10.399	26.804
3900	-10.397	26.801
3910	-10.396	26.798
3920	-10.394	26.795
3930	-10.393	26.792
3940	-10.392	26.79
3950	-10.391	26.788
3960	-10.39	26.786
3970	-10.389	26.785
3980	-10.389	26.784
3990	-10.388	26.783
4000	-10.388	26.782
