FREQ-GHZ	DB[S11]	MAG[Z1]
	EXP1	EXP1
		
0	-6.90E-07	2.00E-06
0.01	-2.20E-06	1.111
0.02	-1.50E-05	2.224
0.03	-5.00E-05	3.341
0.04	-1.20E-04	4.462
0.05	-2.30E-04	5.591
0.06	-4.00E-04	6.728
0.07	-6.30E-04	7.876
0.08	-9.40E-04	9.037
0.09	-0.001	10.213
0.1	-0.002	11.405
0.11	-0.002	12.616
0.12	-0.003	13.849
0.13	-0.004	15.106
0.14	-0.005	16.389
0.15	-0.006	17.703
0.16	-0.008	19.049
0.17	-0.009	20.431
0.18	-0.011	21.853
0.19	-0.013	23.319
0.2	-0.015	24.833
0.21	-0.018	26.4
0.22	-0.02	28.027
0.23	-0.023	29.717
0.24	-0.027	31.48
0.25	-0.03	33.321
0.26	-0.034	35.25
0.27	-0.039	37.275
0.28	-0.043	39.409
0.29	-0.048	41.663
0.3	-0.053	44.052
0.31	-0.059	46.591
0.32	-0.065	49.301
0.33	-0.072	52.203
0.34	-0.079	55.325
0.35	-0.086	58.696
0.36	-0.093	62.354
0.37	-0.102	66.344
0.38	-0.11	70.721
0.39	-0.119	75.55
0.4	-0.128	80.915
0.41	-0.138	86.92
0.42	-0.148	93.698
0.43	-0.158	101.42
0.44	-0.169	110.315
0.45	-0.18	120.687
0.46	-0.191	132.957
0.47	-0.202	147.725
0.48	-0.214	165.869
0.49	-0.226	188.731
0.5	-0.237	218.473
0.51	-0.249	258.807
0.52	-0.261	316.68
0.53	-0.273	406.72
0.54	-0.285	565.594
0.55	-0.296	914.51
0.56	-0.308	2.00E+03
0.57	-0.319	2.00E+03
0.58	-0.329	894.755
0.59	-0.34	557.659
0.6	-0.35	402.52
0.61	-0.36	314.087
0.62	-0.369	257.043
0.63	-0.378	217.19
0.64	-0.386	187.751
0.65	-0.393	165.093
0.66	-0.401	147.093
0.67	-0.407	132.43
0.68	-0.413	120.237
0.69	-0.419	109.926
0.7	-0.424	101.079
0.71	-0.428	93.395
0.72	-0.432	86.648
0.73	-0.435	80.668
0.74	-0.438	75.325
0.75	-0.441	70.513
0.76	-0.443	66.152
0.77	-0.444	62.175
0.78	-0.445	58.528
0.79	-0.446	55.166
0.8	-0.446	52.053
0.81	-0.446	49.158
0.82	-0.446	46.455
0.83	-0.445	43.921
0.84	-0.445	41.538
0.85	-0.443	39.289
0.86	-0.442	37.159
0.87	-0.441	35.137
0.88	-0.439	33.212
0.89	-0.437	31.374
0.9	-0.435	29.614
0.91	-0.433	27.926
0.92	-0.431	26.303
0.93	-0.429	24.737
0.94	-0.427	23.226
0.95	-0.425	21.762
0.96	-0.423	20.342
0.97	-0.421	18.962
0.98	-0.419	17.619
0.99	-0.417	16.308
1	-0.415	15.028
1.01	-0.413	13.774
1.02	-0.411	12.545
1.03	-0.409	11.338
1.04	-0.408	10.151
1.05	-0.406	8.983
1.06	-0.405	7.831
1.07	-0.403	6.696
1.08	-0.402	5.577
1.09	-0.402	4.476
1.1	-0.401	3.402
1.11	-0.4	2.379
1.12	-0.4	1.503
1.13	-0.4	1.16
1.14	-0.4	1.708
1.15	-0.4	2.643
1.16	-0.401	3.684
1.17	-0.402	4.767
1.18	-0.403	5.873
1.19	-0.405	6.996
1.2	-0.406	8.136
1.21	-0.408	9.292
1.22	-0.411	10.466
1.23	-0.413	11.658
1.24	-0.416	12.871
1.25	-0.42	14.107
1.26	-0.424	15.368
1.27	-0.428	16.657
1.28	-0.432	17.977
1.29	-0.437	19.331
1.3	-0.443	20.721
1.31	-0.448	22.153
1.32	-0.455	23.63
1.33	-0.461	25.157
1.34	-0.468	26.739
1.35	-0.476	28.38
1.36	-0.484	30.088
1.37	-0.493	31.869
1.38	-0.502	33.732
1.39	-0.512	35.684
1.4	-0.522	37.735
1.41	-0.532	39.898
1.42	-0.543	42.184
1.43	-0.555	44.608
1.44	-0.567	47.188
1.45	-0.58	49.943
1.46	-0.593	52.897
1.47	-0.607	56.076
1.48	-0.621	59.514
1.49	-0.635	63.248
1.5	-0.65	67.325
1.51	-0.665	71.802
1.52	-0.681	76.748
1.53	-0.697	82.25
1.54	-0.713	88.416
1.55	-0.729	95.386
1.56	-0.746	103.338
1.57	-0.762	112.509
1.58	-0.779	123.218
1.59	-0.795	135.902
1.6	-0.811	151.18
1.61	-0.827	169.952
1.62	-0.843	193.578
1.63	-0.858	224.2
1.64	-0.873	265.359
1.65	-0.888	323.242
1.66	-0.902	409.186
1.67	-0.915	543.592
1.68	-0.927	747.556
1.69	-0.939	921.226
1.7	-0.95	803.957
1.71	-0.96	587.397
1.72	-0.969	436.846
1.73	-0.978	341.243
1.74	-0.985	277.758
1.75	-0.991	233.184
1.76	-0.996	200.362
1.77	-1.001	175.246
1.78	-1.004	155.424
1.79	-1.006	139.38
1.8	-1.008	126.121
1.81	-1.008	114.971
1.82	-1.008	105.453
1.83	-1.007	97.224
1.84	-1.005	90.031
1.85	-1.003	83.68
1.86	-0.999	78.025
1.87	-0.996	72.951
1.88	-0.991	68.365
1.89	-0.986	64.195
1.9	-0.981	60.382
1.91	-0.975	56.875
1.92	-0.969	53.636
1.93	-0.963	50.63
1.94	-0.956	47.828
1.95	-0.949	45.207
1.96	-0.942	42.747
1.97	-0.935	40.429
1.98	-0.928	38.238
1.99	-0.921	36.161
2	-0.913	34.187
2.01	-0.906	32.304
2.02	-0.899	30.505
2.03	-0.892	28.782
2.04	-0.885	27.126
2.05	-0.878	25.533
2.06	-0.872	23.995
2.07	-0.865	22.51
2.08	-0.859	21.07
2.09	-0.853	19.674
2.1	-0.847	18.316
2.11	-0.842	16.994
2.12	-0.837	15.704
2.13	-0.832	14.445
2.14	-0.827	13.213
2.15	-0.823	12.006
2.16	-0.819	10.824
2.17	-0.815	9.666
2.18	-0.812	8.53
2.19	-0.809	7.419
2.2	-0.807	6.337
2.21	-0.805	5.292
2.22	-0.803	4.301
2.23	-0.802	3.403
2.24	-0.801	2.687
2.25	-0.801	2.318
2.26	-0.801	2.458
2.27	-0.802	3.037
2.28	-0.803	3.864
2.29	-0.804	4.818
2.3	-0.806	5.842
2.31	-0.809	6.908
2.32	-0.812	8.006
2.33	-0.815	9.131
2.34	-0.82	10.279
2.35	-0.824	11.45
2.36	-0.83	12.645
2.37	-0.835	13.865
2.38	-0.842	15.112
2.39	-0.849	16.387
2.4	-0.857	17.694
2.41	-0.865	19.035
2.42	-0.874	20.413
2.43	-0.884	21.832
2.44	-0.894	23.296
2.45	-0.905	24.808
2.46	-0.917	26.375
2.47	-0.929	28.001
2.48	-0.942	29.692
2.49	-0.956	31.454
2.5	-0.97	33.296
2.51	-0.985	35.226
2.52	-1.001	37.253
2.53	-1.018	39.388
2.54	-1.035	41.643
2.55	-1.053	44.033
2.56	-1.071	46.574
2.57	-1.091	49.284
2.58	-1.11	52.186
2.59	-1.131	55.306
2.6	-1.151	58.674
2.61	-1.173	62.326
2.62	-1.194	66.307
2.63	-1.216	70.668
2.64	-1.239	75.475
2.65	-1.261	80.805
2.66	-1.284	86.759
2.67	-1.306	93.461
2.68	-1.329	101.069
2.69	-1.351	109.791
2.7	-1.373	119.898
2.71	-1.395	131.756
2.72	-1.416	145.863
2.73	-1.437	162.915
2.74	-1.457	183.9
2.75	-1.476	210.25
2.76	-1.495	244.048
2.77	-1.512	288.256
2.78	-1.528	346.556
2.79	-1.543	421.059
2.8	-1.557	502.499
2.81	-1.569	552.554
2.82	-1.58	528.437
2.83	-1.59	452.699
2.84	-1.598	373.224
2.85	-1.605	308.699
2.86	-1.61	259.543
2.87	-1.613	222.164
2.88	-1.615	193.254
2.89	-1.616	170.416
2.9	-1.615	151.997
2.91	-1.613	136.859
2.92	-1.609	124.209
2.93	-1.604	113.481
2.94	-1.598	104.266
2.95	-1.591	96.26
2.96	-1.583	89.233
2.97	-1.575	83.01
2.98	-1.565	77.455
2.99	-1.554	72.459
3	-1.543	67.936
3.01	-1.531	63.818
3.02	-1.519	60.046
3.03	-1.507	56.575
3.04	-1.494	53.365
3.05	-1.481	50.384
3.06	-1.467	47.605
3.07	-1.454	45.003
3.08	-1.44	42.559
3.09	-1.427	40.256
3.1	-1.414	38.078
3.11	-1.4	36.014
3.12	-1.387	34.05
3.13	-1.375	32.179
3.14	-1.362	30.39
3.15	-1.35	28.676
3.16	-1.338	27.03
3.17	-1.326	25.446
3.18	-1.315	23.918
3.19	-1.304	22.442
3.2	-1.294	21.013
3.21	-1.284	19.628
3.22	-1.275	18.282
3.23	-1.266	16.973
3.24	-1.258	15.698
3.25	-1.25	14.456
3.26	-1.243	13.244
3.27	-1.236	12.061
3.28	-1.23	10.907
3.29	-1.225	9.783
3.3	-1.22	8.691
3.31	-1.215	7.637
3.32	-1.212	6.629
3.33	-1.209	5.684
3.34	-1.206	4.831
3.35	-1.205	4.121
3.36	-1.204	3.633
3.37	-1.203	3.458
3.38	-1.204	3.641
3.39	-1.205	4.136
3.4	-1.206	4.85
3.41	-1.209	5.705
3.42	-1.212	6.652
3.43	-1.216	7.661
3.44	-1.221	8.717
3.45	-1.226	9.809
3.46	-1.233	10.934
3.47	-1.24	12.088
3.48	-1.248	13.272
3.49	-1.256	14.484
3.5	-1.266	15.728
3.51	-1.276	17.003
3.52	-1.288	18.312
3.53	-1.3	19.659
3.54	-1.313	21.045
3.55	-1.327	22.474
3.56	-1.342	23.95
3.57	-1.358	25.478
3.58	-1.374	27.063
3.59	-1.392	28.709
3.6	-1.41	30.422
3.61	-1.43	32.211
3.62	-1.45	34.082
3.63	-1.472	36.044
3.64	-1.494	38.107
3.65	-1.517	40.282
3.66	-1.541	42.582
3.67	-1.565	45.021
3.68	-1.591	47.616
3.69	-1.617	50.388
3.7	-1.643	53.358
3.71	-1.671	56.553
3.72	-1.699	60.006
3.73	-1.727	63.752
3.74	-1.756	67.838
3.75	-1.785	72.317
3.76	-1.814	77.254
3.77	-1.844	82.73
3.78	-1.873	88.845
3.79	-1.902	95.723
3.8	-1.931	103.521
3.81	-1.959	112.439
3.82	-1.987	122.736
3.83	-2.013	134.747
3.84	-2.039	148.914
3.85	-2.064	165.813
3.86	-2.088	186.189
3.87	-2.111	210.966
3.88	-2.132	241.151
3.89	-2.151	277.415
3.9	-2.168	318.856
3.91	-2.184	360.348
3.92	-2.198	389.948
3.93	-2.21	393.619
3.94	-2.22	369.258
3.95	-2.228	329.315
3.96	-2.233	287.158
3.97	-2.237	249.448
3.98	-2.239	217.817
3.99	-2.238	191.816
4	-2.236	170.46
