FREQ-GHZ	DB[S11]	MAG[Z1]
	EXP1	EXP1
		
0	-1.00E-07	8.30E+09
0.01	-0.011	1.40E+03
0.02	-0.022	718.177
0.03	-0.033	478.166
0.04	-0.044	357.974
0.05	-0.054	285.71
0.06	-0.065	237.41
0.07	-0.075	202.803
0.08	-0.085	176.753
0.09	-0.094	156.408
0.1	-0.103	140.056
0.11	-0.112	126.608
0.12	-0.121	115.337
0.13	-0.129	105.74
0.14	-0.136	97.459
0.15	-0.143	90.229
0.16	-0.15	83.853
0.17	-0.156	78.181
0.18	-0.162	73.093
0.19	-0.168	68.498
0.2	-0.173	64.321
0.21	-0.177	60.501
0.22	-0.182	56.991
0.23	-0.185	53.748
0.24	-0.189	50.739
0.25	-0.192	47.935
0.26	-0.195	45.312
0.27	-0.197	42.849
0.28	-0.199	40.529
0.29	-0.201	38.336
0.3	-0.202	36.257
0.31	-0.204	34.281
0.32	-0.205	32.396
0.33	-0.206	30.595
0.34	-0.206	28.869
0.35	-0.207	27.211
0.36	-0.207	25.614
0.37	-0.207	24.073
0.38	-0.207	22.584
0.39	-0.207	21.14
0.4	-0.207	19.738
0.41	-0.206	18.374
0.42	-0.206	17.045
0.43	-0.205	15.747
0.44	-0.205	14.477
0.45	-0.204	13.233
0.46	-0.204	12.012
0.47	-0.203	10.811
0.48	-0.203	9.628
0.49	-0.202	8.462
0.5	-0.202	7.31
0.51	-0.201	6.171
0.52	-0.201	5.043
0.53	-0.2	3.927
0.54	-0.2	2.824
0.55	-0.2	1.746
0.56	-0.2	0.786
0.57	-0.2	0.814
0.58	-0.2	1.785
0.59	-0.2	2.864
0.6	-0.201	3.967
0.61	-0.201	5.084
0.62	-0.202	6.213
0.63	-0.203	7.353
0.64	-0.204	8.505
0.65	-0.205	9.673
0.66	-0.207	10.856
0.67	-0.208	12.058
0.68	-0.21	13.281
0.69	-0.212	14.526
0.7	-0.215	15.798
0.71	-0.217	17.098
0.72	-0.22	18.429
0.73	-0.224	19.795
0.74	-0.227	21.199
0.75	-0.231	22.645
0.76	-0.235	24.138
0.77	-0.24	25.682
0.78	-0.245	27.282
0.79	-0.25	28.944
0.8	-0.256	30.675
0.81	-0.262	32.481
0.82	-0.269	34.371
0.83	-0.276	36.354
0.84	-0.283	38.439
0.85	-0.291	40.64
0.86	-0.299	42.968
0.87	-0.308	45.441
0.88	-0.317	48.075
0.89	-0.326	50.891
0.9	-0.336	53.914
0.91	-0.347	57.173
0.92	-0.357	60.702
0.93	-0.369	64.542
0.94	-0.38	68.743
0.95	-0.392	73.366
0.96	-0.405	78.486
0.97	-0.417	84.197
0.98	-0.43	90.617
0.99	-0.444	97.899
1	-0.457	106.241
1.01	-0.471	115.91
1.02	-0.485	127.266
1.03	-0.498	140.813
1.04	-0.512	157.274
1.05	-0.526	177.731
1.06	-0.54	203.864
1.07	-0.553	238.432
1.08	-0.567	286.28
1.09	-0.58	356.66
1.1	-0.592	469.253
1.11	-0.605	670.977
1.12	-0.616	1.10E+03
1.13	-0.628	1.40E+03
1.14	-0.639	934.41
1.15	-0.649	604.006
1.16	-0.658	433.327
1.17	-0.667	334.913
1.18	-0.675	271.835
1.19	-0.683	228.171
1.2	-0.69	196.203
1.21	-0.696	171.79
1.22	-0.701	152.528
1.23	-0.705	136.928
1.24	-0.709	124.022
1.25	-0.712	113.157
1.26	-0.715	103.87
1.27	-0.716	95.832
1.28	-0.717	88.796
1.29	-0.718	82.578
1.3	-0.718	77.035
1.31	-0.717	72.055
1.32	-0.716	67.551
1.33	-0.714	63.451
1.34	-0.712	59.698
1.35	-0.71	56.245
1.36	-0.707	53.052
1.37	-0.704	50.086
1.38	-0.7	47.321
1.39	-0.696	44.732
1.4	-0.693	42.3
1.41	-0.689	40.007
1.42	-0.684	37.839
1.43	-0.68	35.782
1.44	-0.676	33.826
1.45	-0.671	31.959
1.46	-0.667	30.175
1.47	-0.662	28.464
1.48	-0.658	26.82
1.49	-0.653	25.236
1.5	-0.649	23.708
1.51	-0.645	22.23
1.52	-0.641	20.797
1.53	-0.637	19.406
1.54	-0.633	18.052
1.55	-0.629	16.733
1.56	-0.625	15.445
1.57	-0.622	14.186
1.58	-0.619	12.953
1.59	-0.616	11.744
1.6	-0.613	10.557
1.61	-0.61	9.391
1.62	-0.608	8.245
1.63	-0.606	7.119
1.64	-0.604	6.015
1.65	-0.603	4.938
1.66	-0.602	3.901
1.67	-0.601	2.936
1.68	-0.6	2.135
1.69	-0.6	1.732
1.7	-0.6	1.985
1.71	-0.601	2.717
1.72	-0.602	3.653
1.73	-0.603	4.677
1.74	-0.604	5.746
1.75	-0.606	6.844
1.76	-0.609	7.965
1.77	-0.612	9.107
1.78	-0.615	10.268
1.79	-0.619	11.45
1.8	-0.623	12.654
1.81	-0.627	13.881
1.82	-0.632	15.134
1.83	-0.638	16.415
1.84	-0.644	17.727
1.85	-0.651	19.072
1.86	-0.658	20.454
1.87	-0.666	21.877
1.88	-0.674	23.344
1.89	-0.683	24.86
1.9	-0.692	26.431
1.91	-0.702	28.06
1.92	-0.712	29.755
1.93	-0.724	31.521
1.94	-0.735	33.368
1.95	-0.748	35.302
1.96	-0.761	37.334
1.97	-0.774	39.474
1.98	-0.788	41.736
1.99	-0.803	44.133
2	-0.818	46.682
2.01	-0.834	49.402
2.02	-0.851	52.315
2.03	-0.867	55.448
2.04	-0.885	58.832
2.05	-0.903	62.503
2.06	-0.921	66.507
2.07	-0.939	70.897
2.08	-0.958	75.74
2.09	-0.977	81.116
2.1	-0.997	87.129
2.11	-1.016	93.908
2.12	-1.036	101.619
2.13	-1.055	110.48
2.14	-1.074	120.782
2.15	-1.093	132.917
2.16	-1.112	147.432
2.17	-1.131	165.107
2.18	-1.149	187.084
2.19	-1.166	215.091
2.2	-1.183	251.824
2.21	-1.198	301.577
2.22	-1.214	371.061
2.23	-1.228	468.892
2.24	-1.241	593.967
2.25	-1.253	688.342
2.26	-1.264	649.3
2.27	-1.274	525.553
2.28	-1.283	412.957
2.29	-1.29	331.197
2.3	-1.296	273.192
2.31	-1.301	231.013
2.32	-1.305	199.326
2.33	-1.308	174.782
2.34	-1.309	155.26
2.35	-1.309	139.378
2.36	-1.308	126.206
2.37	-1.306	115.101
2.38	-1.303	105.605
2.39	-1.299	97.386
2.4	-1.294	90.193
2.41	-1.289	83.84
2.42	-1.282	78.18
2.43	-1.275	73.098
2.44	-1.268	68.505
2.45	-1.259	64.328
2.46	-1.251	60.507
2.47	-1.241	56.994
2.48	-1.232	53.748
2.49	-1.222	50.736
2.5	-1.212	47.93
2.51	-1.202	45.304
2.52	-1.192	42.839
2.53	-1.182	40.517
2.54	-1.171	38.323
2.55	-1.161	36.243
2.56	-1.151	34.266
2.57	-1.141	32.382
2.58	-1.131	30.581
2.59	-1.122	28.856
2.6	-1.112	27.2
2.61	-1.103	25.606
2.62	-1.094	24.069
2.63	-1.085	22.583
2.64	-1.077	21.145
2.65	-1.069	19.75
2.66	-1.062	18.395
2.67	-1.054	17.076
2.68	-1.048	15.791
2.69	-1.041	14.536
2.7	-1.035	13.311
2.71	-1.03	12.113
2.72	-1.025	10.942
2.73	-1.02	9.796
2.74	-1.016	8.678
2.75	-1.013	7.591
2.76	-1.009	6.54
2.77	-1.007	5.537
2.78	-1.005	4.605
2.79	-1.003	3.79
2.8	-1.002	3.176
2.81	-1.002	2.888
2.82	-1.002	3.02
2.83	-1.003	3.526
2.84	-1.004	4.276
2.85	-1.006	5.17
2.86	-1.009	6.149
2.87	-1.012	7.184
2.88	-1.016	8.259
2.89	-1.02	9.366
2.9	-1.025	10.501
2.91	-1.031	11.662
2.92	-1.038	12.85
2.93	-1.045	14.065
2.94	-1.053	15.308
2.95	-1.061	16.581
2.96	-1.071	17.887
2.97	-1.081	19.228
2.98	-1.092	20.607
2.99	-1.104	22.028
3	-1.116	23.495
3.01	-1.13	25.011
3.02	-1.144	26.582
3.03	-1.159	28.213
3.04	-1.174	29.911
3.05	-1.191	31.68
3.06	-1.208	33.53
3.07	-1.226	35.469
3.08	-1.245	37.506
3.09	-1.265	39.652
3.1	-1.285	41.92
3.11	-1.306	44.323
3.12	-1.328	46.879
3.13	-1.351	49.606
3.14	-1.374	52.527
3.15	-1.398	55.667
3.16	-1.422	59.057
3.17	-1.447	62.734
3.18	-1.472	66.741
3.19	-1.498	71.131
3.2	-1.523	75.968
3.21	-1.549	81.332
3.22	-1.575	87.319
3.23	-1.601	94.053
3.24	-1.627	101.69
3.25	-1.652	110.432
3.26	-1.677	120.541
3.27	-1.701	132.364
3.28	-1.725	146.367
3.29	-1.748	163.184
3.3	-1.77	183.682
3.31	-1.791	209.043
3.32	-1.811	240.831
3.33	-1.829	280.874
3.34	-1.846	330.461
3.35	-1.862	387.406
3.36	-1.876	439.486
3.37	-1.888	461.707
3.38	-1.899	438.498
3.39	-1.908	386.053
3.4	-1.915	329.199
3.41	-1.92	279.838
3.42	-1.924	240.011
3.43	-1.926	208.397
3.44	-1.926	183.168
3.45	-1.924	162.77
3.46	-1.921	146.029
3.47	-1.916	132.084
3.48	-1.909	120.307
3.49	-1.902	110.235
3.5	-1.892	101.522
3.51	-1.882	93.909
3.52	-1.871	87.195
3.53	-1.858	81.224
3.54	-1.845	75.875
3.55	-1.831	71.05
3.56	-1.816	66.671
3.57	-1.801	62.673
3.58	-1.785	59.005
3.59	-1.769	55.622
3.6	-1.753	52.489
3.61	-1.736	49.575
3.62	-1.719	46.854
3.63	-1.703	44.304
3.64	-1.686	41.906
3.65	-1.669	39.644
3.66	-1.653	37.503
3.67	-1.637	35.472
3.68	-1.621	33.539
3.69	-1.606	31.694
3.7	-1.59	29.93
3.71	-1.576	28.24
3.72	-1.561	26.615
3.73	-1.547	25.051
3.74	-1.534	23.543
3.75	-1.521	22.085
3.76	-1.509	20.674
3.77	-1.498	19.305
3.78	-1.487	17.977
3.79	-1.476	16.685
3.8	-1.467	15.429
3.81	-1.458	14.205
3.82	-1.449	13.014
3.83	-1.442	11.854
3.84	-1.435	10.726
3.85	-1.428	9.633
3.86	-1.423	8.579
3.87	-1.418	7.571
3.88	-1.414	6.624
3.89	-1.411	5.758
3.9	-1.408	5.01
3.91	-1.406	4.433
3.92	-1.405	4.097
3.93	-1.405	4.058
3.94	-1.406	4.326
3.95	-1.407	4.851
3.96	-1.41	5.563
3.97	-1.413	6.404
3.98	-1.417	7.334
3.99	-1.422	8.329
4	-1.428	9.372
